Frequency (Hz),Mean
100.263977050781,0.07580786192652109
100.600433349609,0.07597224057238423
100.936889648438,0.07617206485781174
101.273345947266,0.07641202586008887
101.609802246094,0.07669239002375565
101.946258544922,0.07700716188067162
102.28271484375,0.07734591378457399
102.619171142578,0.0776969195691121
102.955627441406,0.07804655211052627
103.292083740234,0.07838261200959057
103.628540039062,0.0786964465622925
103.964996337891,0.07898414847654242
104.301452636719,0.07924709243147568
104.637908935547,0.07949159911047185
104.974365234375,0.07972884944001715
105.310821533203,0.07996994158237758
105.647277832031,0.0802268624226303
105.983734130859,0.08051018767338747
106.320190429688,0.08082674627313542
106.656646728516,0.08118150417067019
106.993103027344,0.0815732755701272
107.329559326172,0.08199863568792111
107.666015625,0.08245158271294699
108.002471923828,0.08292297266255821
108.338928222656,0.08340191034419583
108.675384521484,0.08387805856433014
109.011840820312,0.08434135424630307
109.348297119141,0.08478391378254073
109.684753417969,0.08520078788965244
110.021209716797,0.08559118389585288
110.357666015625,0.08595830972729465
110.694122314453,0.08630987846051578
111.030578613281,0.08665782732457003
111.367034912109,0.08701412793173045
111.703491210938,0.08739112186500433
112.039947509766,0.08779845991572569
112.376403808594,0.08824199425137655
112.712860107422,0.08872234066326132
113.04931640625,0.08923686075710574
113.385772705078,0.08977712631262312
113.722229003906,0.09033147069016882
114.058685302734,0.09088574246050032
114.395141601562,0.09142559685162863
114.731597900391,0.0919383574877501
115.068054199219,0.09241571149909819
115.404510498047,0.09285556125829326
115.740966796875,0.09326144077386368
116.077423095703,0.09364140292254416
116.413879394531,0.09400613969133428
116.750335693359,0.09436732161374306
117.086791992188,0.09473536437191318
117.423248291016,0.09511750869112064
117.759704589844,0.09551897214218627
118.096160888672,0.09594139534128267
118.4326171875,0.09638246049010643
118.769073486328,0.09683851214737779
119.105529785156,0.09730285009626752
119.441986083984,0.09776837270411856
119.778442382812,0.09822949470207773
120.114898681641,0.09867957137676284
120.451354980469,0.0991150690737634
120.787811279297,0.09953361322327162
121.124267578125,0.09993480152034614
121.460723876953,0.1003193061167685
121.797180175781,0.10068857736277707
122.133636474609,0.10104528827998585
122.470092773438,0.10139359931193134
122.806549072266,0.10173770649766319
123.143005371094,0.1020823241126531
123.479461669922,0.10243241363800237
123.81591796875,0.10279242708427465
124.152374267578,0.10316563403095709
124.488830566406,0.10355439828349064
124.825286865234,0.10395891613913158
125.161743164062,0.10437770384289528
125.498199462891,0.10480798925407293
125.834655761719,0.1052437456693758
126.171112060547,0.1056811514414612
126.507568359375,0.10611240992923263
126.844024658203,0.10653261990280052
127.180480957031,0.10693581180014104
127.516937255859,0.10732029050665508
127.853393554688,0.10768435354364117
128.189849853516,0.10803024929449608
128.526306152344,0.10836198878992893
128.862762451172,0.10868435641571975
129.19921875,0.10900463947377739
129.535675048828,0.10932863969647244
129.872131347656,0.10966108754877953
130.208587646484,0.11000639222366096
130.545043945312,0.11036676336717206
130.881500244141,0.11074297940332334
131.217956542969,0.11113459030938429
131.554412841797,0.11154142665761975
131.890869140625,0.11196221190224429
132.227325439453,0.11239612249727463
132.563781738281,0.11284146924354106
132.900238037109,0.1132980523307642
133.236694335938,0.11376343279290968
133.573150634766,0.11423576958248269
133.909606933594,0.11471042362278314
134.246063232422,0.1151818214939222
134.58251953125,0.1156442196503884
134.918975830078,0.11608853726022175
135.255432128906,0.11650899481501516
135.591888427734,0.1168986031774685
135.928344726562,0.11725433109648828
136.264801025391,0.11757577313665317
136.601257324219,0.11786600221492563
136.937713623047,0.11813374104793625
137.274169921875,0.11838864426245317
137.610626220703,0.11864447004690856
137.947082519531,0.11891398645316723
138.283538818359,0.1192093861736547
138.619995117188,0.11953872242775425
138.956451416016,0.11990605280179709
139.292907714844,0.12031113622154359
139.629364013672,0.12074875560145179
139.9658203125,0.12120786793056564
140.302276611328,0.12167725266031429
140.638732910156,0.12214228922345952
140.975189208984,0.12258963150359006
141.311645507812,0.12300960289824267
141.648101806641,0.12339561255532776
141.984558105469,0.1237464249212755
142.321014404297,0.12406572390159228
142.657470703125,0.12436296967891299
142.993927001953,0.12464863900343717
143.330383300781,0.12493701934834485
143.666839599609,0.12524062230861752
144.003295898438,0.12556971287726276
144.339752197266,0.1259322011873265
144.676208496094,0.12632984761753657
145.012664794922,0.12676206494752879
145.34912109375,0.12722217163045765
145.685577392578,0.12770290951079505
146.022033691406,0.12819219699138742
146.358489990234,0.12868209427031257
146.694946289062,0.12916306087553892
147.031402587891,0.1296288139483322
147.367858886719,0.13007581758822298
147.704315185547,0.1305047911366463
148.040771484375,0.130918975540524
148.377227783203,0.13132217630850285
148.713684082031,0.13172138678021708
149.050140380859,0.13212189688737816
149.386596679688,0.1325279645882611
149.723052978516,0.13294188238359003
150.059509277344,0.1333625603918424
150.395965576172,0.13378705652656864
150.732421875,0.1342118061278834
151.068878173828,0.13463134657106227
151.405334472656,0.13504029288501915
151.741790771484,0.13543555790113826
152.078247070312,0.13581549101472593
152.414703369141,0.13618026944975176
152.751159667969,0.13653199916288014
153.087615966797,0.13687492011304456
153.424072265625,0.13721310873257692
153.760528564453,0.1375528492163862
154.096984863281,0.13789920662168095
154.433441162109,0.13825591388978528
154.769897460938,0.138625218645068
155.106353759766,0.13900721452447348
155.442810058594,0.13940007760016765
155.779266357422,0.13980029475184255
156.11572265625,0.14020523886793385
156.452178955078,0.14060974842309568
156.788635253906,0.14101217824677192
157.125091552734,0.1414116228677485
157.461547851562,0.14180898424446237
157.798004150391,0.14220602377432923
158.134460449219,0.14260632289509878
158.470916748047,0.14301368322487112
158.807373046875,0.14343142772600448
159.143829345703,0.14386356673887304
159.480285644531,0.1443090654996841
159.816741943359,0.14476716844863385
160.153198242188,0.1452330528063736
160.489654541016,0.1457009469249197
160.826110839844,0.1461636243153048
161.162567138672,0.14661421466520033
161.4990234375,0.14704664397086803
161.835479736328,0.1474570084032661
162.171936035156,0.1478458796441356
162.508392333984,0.1482152335989227
162.844848632812,0.14857091492979682
163.181304931641,0.14891933188147938
163.517761230469,0.1492700263930849
163.854217529297,0.14962994874043883
164.190673828125,0.1500066920168154
164.527130126953,0.15040405270944493
164.863586425781,0.15082434764852434
165.200042724609,0.15126540737929312
165.536499023438,0.15172261426533726
165.872955322266,0.15218950838044532
166.209411621094,0.15265816474964883
166.545867919922,0.1531208990978203
166.88232421875,0.1535699089172149
167.218780517578,0.15400152212660922
167.555236816406,0.15441369572730296
167.891693115234,0.15480816655012716
168.228149414062,0.15518779730977492
168.564605712891,0.15556007626738544
168.901062011719,0.15593179403761265
169.237518310547,0.15630988480394845
169.573974609375,0.15669968094495787
169.910430908203,0.1571051373191507
170.246887207031,0.15752840993161535
170.583343505859,0.15796878738147319
170.919799804688,0.158423056404932
171.256256103516,0.15888633304743538
171.592712402344,0.1593545576289494
171.929168701172,0.15982045770819825
172.265625,0.16028035151837544
172.602081298828,0.16073080221335437
172.938537597656,0.1611690256256149
173.274993896484,0.16159412515360255
173.611450195312,0.1620080543757315
173.947906494141,0.16241236197101633
174.284362792969,0.1628094942373164
174.620819091797,0.16320252436245827
174.957275390625,0.16359430511778303
175.293731689453,0.16398637176097688
175.630187988281,0.1643817004578014
175.966644287109,0.1647821580677099
176.303100585938,0.1651877532278706
176.639556884766,0.16560009143256044
176.976013183594,0.16601898115592834
177.312469482422,0.16644450735268723
177.64892578125,0.16687418485249933
177.985382080078,0.1673060129342598
178.321838378906,0.16773777165264225
178.658294677734,0.16816602089694083
178.994750976562,0.1685875469510089
179.331207275391,0.16900079372186314
179.667663574219,0.16940399436931694
180.004119873047,0.1697999468751321
180.340576171875,0.17019020583447192
180.677032470703,0.17058247369398427
181.013488769531,0.17098238628958445
181.349945068359,0.17139828765727583
181.686401367188,0.1718365794597781
182.022857666016,0.17230267439254995
182.359313964844,0.17279837887717583
182.695770263672,0.17332274660552882
183.0322265625,0.17387076358620648
183.368682861328,0.17443436964221615
183.705139160156,0.17500219838042846
184.041595458984,0.1755639793595602
184.378051757812,0.1761079307353101
184.714508056641,0.17662666780961728
185.050964355469,0.17711448587537135
185.387420654297,0.17757318766082344
185.723876953125,0.1780063910697111
186.060333251953,0.17842338214979087
186.396789550781,0.17883510230502572
186.733245849609,0.17925133225259066
187.069702148438,0.17968279556378433
187.406158447266,0.18013267378274014
187.742614746094,0.18060417466542003
188.079071044922,0.18109375111872583
188.41552734375,0.18159613330365354
188.751983642578,0.18210255618824736
189.088439941406,0.18260453451662756
189.424896240234,0.18309481172096093
189.761352539062,0.18356916026882644
190.097808837891,0.1840268125225815
190.434265136719,0.18446916403598754
190.770721435547,0.1849029918216504
191.107177734375,0.18533594714455306
191.443634033203,0.185774349969484
191.780090332031,0.18622403933225024
192.116546630859,0.18668807116435424
192.453002929688,0.18716392424201286
192.789459228516,0.1876459974703215
193.125915527344,0.18812730177799825
193.462371826172,0.18859846219426885
193.798828125,0.18905183283930077
194.135284423828,0.18948381864533867
194.471740722656,0.1898927971484648
194.808197021484,0.19028393358509316
195.144653320312,0.1906651101853048
195.481109619141,0.19104841057990135
195.817565917969,0.19144494568426967
196.154022216797,0.1918669894449559
196.490478515625,0.19232139659926956
196.826934814453,0.19281171211702774
197.163391113281,0.19333563803633097
197.499847412109,0.19388432175764833
197.836303710938,0.19444660366701128
198.172760009766,0.19500724991239132
198.509216308594,0.19555324769179544
198.845672607422,0.19607241163814249
199.18212890625,0.19655985338048085
199.518585205078,0.19701284859653767
199.855041503906,0.19743799240528298
200.191497802734,0.19784249450360275
200.527954101562,0.1982361622557268
200.864410400391,0.19862954967210883
201.200866699219,0.19903039539154807
201.537322998047,0.19944638744141505
201.873779296875,0.19988202170672384
202.210235595703,0.2003390415016309
202.546691894531,0.20081705070342534
202.883148193359,0.2013136747495558
203.219604492188,0.2018231011521605
203.556060791016,0.20233933217553793
203.892517089844,0.20285664157927194
204.228973388672,0.20337016895201737
204.5654296875,0.20387560712454836
204.901885986328,0.20437266078541141
205.238342285156,0.20486190790965714
205.574798583984,0.2053442395697082
205.911254882812,0.20582322988971943
206.247711181641,0.20630166712275405
206.584167480469,0.20678253193789478
206.920623779297,0.20726904761949752
207.257080078125,0.20776471058185436
207.593536376953,0.20827193877810282
207.929992675781,0.2087913955016584
208.266448974609,0.20932502067222444
208.602905273438,0.20987057954417257
208.939361572266,0.21042485701062136
209.275817871094,0.2109828104831505
209.612274169922,0.21153852477851479
209.94873046875,0.21208517239030042
210.285186767578,0.21261683166485335
210.621643066406,0.21312986636055825
210.958099365234,0.2136219008286085
211.294555664062,0.21409543423332028
211.631011962891,0.21455540256198385
211.967468261719,0.21500892575128647
212.303924560547,0.2154663935030789
212.640380859375,0.21593759083568997
212.976837158203,0.21643059498927752
213.313293457031,0.21695166934479823
213.649749755859,0.21750202407300573
213.986206054688,0.21807774806432062
214.322662353516,0.2186715373840284
214.659118652344,0.2192718944439415
214.995574951172,0.21986498878328603
215.33203125,0.22043934268666585
215.668487548828,0.22098515187521667
216.004943847656,0.22149629405933974
216.341400146484,0.22197316030583866
216.677856445312,0.22242207592067992
217.014312744141,0.22285386115714284
217.350769042969,0.22328056475842112
217.687225341797,0.2237180355694855
218.023681640625,0.22417767655928503
218.360137939453,0.22466812881770276
218.696594238281,0.2251936464505074
219.033050537109,0.2257508200773665
219.369506835938,0.22633297521076307
219.705963134766,0.22692966873257095
220.042419433594,0.2275287029265051
220.378875732422,0.22811826434935645
220.71533203125,0.22868989630218756
221.051788330078,0.22923783772448778
221.388244628906,0.22976283308958645
221.724700927734,0.23026883833037157
222.061157226562,0.23076319025288822
222.397613525391,0.23125750600617426
222.734069824219,0.23176123698822693
223.070526123047,0.23228383801526445
223.406982421875,0.23283176920238602
223.743438720703,0.23340774731959027
224.079895019531,0.2340089126343406
224.416351318359,0.23463016188648367
224.752807617188,0.23526333406704553
225.089263916016,0.23589866544987265
225.425720214844,0.23652856856966312
225.762176513672,0.23714398631449338
226.0986328125,0.23773920834164203
226.435089111328,0.23831172804534667
226.771545410156,0.23886033595987496
227.108001708984,0.23938838163782394
227.444458007812,0.23990088482344044
227.780914306641,0.24040384818223642
228.117370605469,0.2409048495253229
228.453826904297,0.24141116768066923
228.790283203125,0.24193062817447442
229.126739501953,0.24246855872506012
229.463195800781,0.24302898097457418
229.799652099609,0.24361400767757319
230.136108398438,0.24422383299888456
230.472564697266,0.2448558887981958
230.809020996094,0.24550438398438862
231.145477294922,0.2461607991889176
231.48193359375,0.24681734709776468
231.818389892578,0.24746199764645307
232.154846191406,0.2480850015252109
232.491302490234,0.24867756751814518
232.827758789062,0.24923477977370104
233.164215087891,0.24975455362287463
233.500671386719,0.25024013844910964
233.837127685547,0.25069873471369586
234.173583984375,0.25114159146212434
234.510040283203,0.25158094910307605
234.846496582031,0.2520311177437013
235.182952880859,0.2525059874916925
235.519409179688,0.25301401051120453
235.855865478516,0.2535629334185887
236.192321777344,0.25415452218213863
236.528778076172,0.2547856042010602
236.865234375,0.25545058714760727
237.201690673828,0.25614017729984734
237.538146972656,0.2568419791067357
237.874603271484,0.25754698600343373
238.211059570312,0.2582448811078234
238.547515869141,0.2589282366223322
238.883972167969,0.25959378557904567
239.220428466797,0.2602387640466771
239.556884765625,0.26086372163431
239.893341064453,0.2614706263770875
240.229797363281,0.26206128719777955
240.566253662109,0.2626375491628374
240.902709960938,0.2632010587176924
241.239166259766,0.2637522955973406
241.575622558594,0.2642909598579773
241.912078857422,0.26481727146369527
242.24853515625,0.2653330822766622
242.584991455078,0.26583968271635944
242.921447753906,0.26634088628978175
243.257904052734,0.26684436205628725
243.594360351562,0.26735751233803307
243.930816650391,0.26788921677745553
244.267272949219,0.2684483121782947
244.603729248047,0.26904240653599604
244.940185546875,0.2696767535149159
245.276641845703,0.27035087123490176
245.613098144531,0.27106366235838425
245.949554443359,0.2718070503009352
246.286010742188,0.27256976901661134
246.622467041016,0.2733390474945459
246.958923339844,0.2740998738884818
247.295379638672,0.27483914862183506
247.6318359375,0.27554647041615987
247.968292236328,0.2762152084131483
248.304748535156,0.2768455376922051
248.641204833984,0.2774421724431541
248.977661132812,0.2780130618656204
249.314117431641,0.2785691596367673
249.650573730469,0.2791231839724759
249.987030029297,0.27968557975977987
250.323486328125,0.28026787224378974
250.659942626953,0.2808771952842921
250.996398925781,0.28151715323333704
251.332855224609,0.28218736166345904
251.669311523438,0.2828816979551364
252.005767822266,0.2835902077945562
252.342224121094,0.28429886840838875
252.678680419922,0.2849960581309938
253.01513671875,0.2856694725958945
253.351593017578,0.28631413621706775
253.688049316406,0.28693010773676847
254.024505615234,0.28752410355059943
254.360961914062,0.28810522100450636
254.697418212891,0.2886865742141962
255.033874511719,0.2892815384724548
255.370330810547,0.2899023049088541
255.706787109375,0.2905576596708311
256.043243408203,0.29125212890504176
256.379699707031,0.29198285090626735
256.716156005859,0.29274387962087683
257.052612304688,0.2935224695079698
257.389068603516,0.29430168489224345
257.725524902344,0.29506849556607634
258.061981201172,0.29580763450332564
258.3984375,0.296510229868982
258.734893798828,0.297173829127868
259.071350097656,0.2978002604311435
259.407806396484,0.29839530667413694
259.744262695312,0.29897324573815365
260.080718994141,0.2995446068444466
260.417175292969,0.3001232720891328
260.753631591797,0.3007212431222282
261.090087890625,0.3013471768841612
261.426544189453,0.3020043020739247
261.763000488281,0.3026941089700736
262.099456787109,0.30341031932834817
262.435913085938,0.30414636634270453
262.772369384766,0.3048936442950626
263.108825683594,0.30564344473964433
263.445281982422,0.3063876180725655
263.78173828125,0.307119981884989
264.118194580078,0.30783528336453836
264.454650878906,0.3085324002487165
264.791107177734,0.3092095307354616
265.127563476562,0.3098675666032854
265.464019775391,0.3105101963967216
265.800476074219,0.31114109223253744
266.136932373047,0.31176707065320547
266.473388671875,0.3123951458533652
266.809844970703,0.3130346047051439
267.146301269531,0.3136946702771181
267.482757568359,0.3143851054521992
267.819213867188,0.3151140797279711
268.155670166016,0.31588627198810615
268.492126464844,0.3167064539276956
268.828582763672,0.31757153836248897
269.1650390625,0.31847413580169565
269.501495361328,0.31940203455378946
269.837951660156,0.32033896932852635
270.174407958984,0.3212651938066686
270.510864257812,0.32216262337453283
270.847320556641,0.32301482888279714
271.183776855469,0.32381191948064736
271.520233154297,0.3245495266997656
271.856689453125,0.32523202650348687
272.193145751953,0.3258714331895119
272.529602050781,0.3264839089190823
272.866058349609,0.3270877131011074
273.202514648438,0.32770237832625415
273.538970947266,0.32834246470994694
273.875427246094,0.3290159770346354
274.211883544922,0.3297266468039649
274.54833984375,0.3304694414442645
274.884796142578,0.3312341685402706
275.221252441406,0.33200849183522035
275.557708740234,0.3327776487289131
275.894165039062,0.3335331016575034
276.230621337891,0.33426735437324373
276.567077636719,0.3349805578731492
276.903533935547,0.335678446359545
277.239990234375,0.3363709700901276
277.576446533203,0.3370688909757945
277.912902832031,0.33778515081463617
278.249359130859,0.33852697757214656
278.585815429688,0.33929790538843474
278.922271728516,0.3400957239672958
279.258728027344,0.3409140037412907
279.595184326172,0.34173969078579153
279.931640625,0.3425605581171551
280.268096923828,0.34336547422373115
280.604553222656,0.34414737751994856
280.941009521484,0.3449027231252654
281.277465820312,0.3456361971644513
281.613922119141,0.3463566919466508
281.950378417969,0.3470766259635124
282.286834716797,0.34780787605800045
282.623291015625,0.34856267443229416
282.959747314453,0.3493471731975596
283.296203613281,0.3501627297370028
283.632659912109,0.3510041930766
