Frequency (Hz),Mean
100.263977050781,0.19937822552485837
100.600433349609,0.19841761015916734
100.936889648438,0.19779689540563136
101.273345947266,0.19764289126473747
101.609802246094,0.19802945476909514
101.946258544922,0.19897874772644886
102.28271484375,0.20045465914061875
102.619171142578,0.20235290895168892
102.955627441406,0.20451077440216459
103.292083740234,0.2067115387422834
103.628540039062,0.20871553481223679
103.964996337891,0.21028827550608406
104.301452636719,0.21125164673353303
104.637908935547,0.21153162957166805
104.974365234375,0.21116026895436865
105.310821533203,0.21029015087977865
105.647277832031,0.20914165494707151
105.983734130859,0.2079659430551517
106.320190429688,0.20699297022036822
106.656646728516,0.20641392629483427
106.993103027344,0.20634912322538143
107.329559326172,0.2068446517467828
107.666015625,0.2078784240339192
108.002471923828,0.2093417369673801
108.338928222656,0.21107835671610065
108.675384521484,0.21287788164403806
109.011840820312,0.214520590324126
109.348297119141,0.21580983222128092
109.684753417969,0.2166150211710923
110.021209716797,0.21690191469935496
110.357666015625,0.21673312169570944
110.694122314453,0.21624788988342217
111.030578613281,0.2156364254726401
111.367034912109,0.2150889883256708
111.703491210938,0.2147640889269924
112.039947509766,0.21477232100175517
112.376403808594,0.21515643941023652
112.712860107422,0.21589558010049636
113.04931640625,0.21691043739103166
113.385772705078,0.2180754913805272
113.722229003906,0.21924453264975488
114.058685302734,0.22027270805240862
114.395141601562,0.2210439077739539
114.731597900391,0.22150435801235643
115.068054199219,0.22165477524690133
115.404510498047,0.22156323825553456
115.740966796875,0.22133815358980766
116.077423095703,0.22110147741364547
116.413879394531,0.22096949438974564
116.750335693359,0.22102530796077416
117.086791992188,0.22131240664920035
117.423248291016,0.22182671001350518
117.759704589844,0.22252286599270962
118.096160888672,0.22332339583142968
118.4326171875,0.22413605466015876
118.769073486328,0.22487324919415763
119.105529785156,0.22546052758409554
119.441986083984,0.2258664489124136
119.778442382812,0.22609628239151416
120.114898681641,0.22618588359420996
120.451354980469,0.226200119416154
120.787811279297,0.22621822880139827
121.124267578125,0.22630254203774847
121.460723876953,0.22650086818603213
121.797180175781,0.22683818355214144
122.133636474609,0.2273002922575207
122.470092773438,0.22786016224283348
122.806549072266,0.2284643781360487
123.143005371094,0.22905614778148076
123.479461669922,0.2295853274637989
123.81591796875,0.2300159377328023
124.152374267578,0.230334500582695
124.488830566406,0.23055220411803948
124.825286865234,0.23069791989354774
125.161743164062,0.23081383185782808
125.498199462891,0.23094032372101206
125.834655761719,0.2311168356239226
126.171112060547,0.23136507259640512
126.507568359375,0.2316926050079453
126.844024658203,0.23208965211921614
127.180480957031,0.23253208783234539
127.516937255859,0.23299476246062567
127.853393554688,0.23344278474095806
128.189849853516,0.23385391732129338
128.526306152344,0.23421177817779756
128.862762451172,0.23451553835132122
129.19921875,0.23477004641043855
129.535675048828,0.23499642103668983
129.872131347656,0.23521402731378085
130.208587646484,0.23544023484007534
130.545043945312,0.2356937810322293
130.881500244141,0.23598245114915228
131.217956542969,0.2363045210956938
131.554412841797,0.23665641941803736
131.890869140625,0.23702473838029178
132.227325439453,0.2373997359624104
132.563781738281,0.23776682286203288
132.900238037109,0.23811744197549967
133.236694335938,0.23844554430331547
133.573150634766,0.2387493742523845
133.909606933594,0.23903372298197592
134.246063232422,0.23929975707557505
134.58251953125,0.23955124284385867
134.918975830078,0.2397944904327615
135.255432128906,0.2400332860767799
135.591888427734,0.24026816725288036
135.928344726562,0.2405028412454434
136.264801025391,0.2407440846567195
136.601257324219,0.2409922866036807
136.937713623047,0.24125098236578735
137.274169921875,0.24152520296047697
137.610626220703,0.24181886085745574
137.947082519531,0.24212851784922926
138.283538818359,0.24245661043113198
138.619995117188,0.24279004758990963
138.956451416016,0.24312280123063945
139.292907714844,0.24344578752962223
139.629364013672,0.24374800570643182
139.9658203125,0.24402816930582172
140.302276611328,0.2442795578692467
140.638732910156,0.2445116305412399
140.975189208984,0.244732140920237
141.311645507812,0.24495617132845127
141.648101806641,0.24519960902320595
141.984558105469,0.24547235605474507
142.321014404297,0.24578564572497355
142.657470703125,0.2461353780198442
142.993927001953,0.24651283031427731
143.330383300781,0.24690314535558722
143.666839599609,0.24728243245407944
144.003295898438,0.24762589265962262
144.339752197266,0.2479214438920734
144.676208496094,0.24815151925283377
145.012664794922,0.2483140349333255
145.34912109375,0.24842814795926757
145.685577392578,0.24851304249418338
146.022033691406,0.2486043331270463
146.358489990234,0.24874200796814097
146.694946289062,0.24895686273507903
147.031402587891,0.2492769390645012
147.367858886719,0.2497154251331155
147.704315185547,0.2502638239579054
148.040771484375,0.2508977343010825
148.377227783203,0.2515795929801841
148.713684082031,0.2522637870975092
149.050140380859,0.2528966168582976
149.386596679688,0.25343736525052457
149.723052978516,0.2538583404239483
150.059509277344,0.25413611257972285
150.395965576172,0.2542751285213631
150.732421875,0.25428935892091814
151.068878173828,0.25420659881171453
151.405334472656,0.2540707494098778
151.741790771484,0.25391869110297205
152.078247070312,0.2537969282629264
152.414703369141,0.25373799185273455
152.751159667969,0.25376290136206986
153.087615966797,0.25388540749745403
153.424072265625,0.2540922616433633
153.760528564453,0.2543696202624884
154.096984863281,0.2546918594340597
154.433441162109,0.25502959921300555
154.769897460938,0.2553564664089391
155.106353759766,0.2556539120726154
155.442810058594,0.25591051621041666
155.779266357422,0.2561244937064125
156.11572265625,0.25629902576769137
156.452178955078,0.25645006596292985
156.788635253906,0.2565889592263513
157.125091552734,0.25673360013789365
157.461547851562,0.2568966401984674
157.798004150391,0.2570847634685447
158.134460449219,0.2573011958622335
158.470916748047,0.257546591875438
158.807373046875,0.25781102197155403
159.143829345703,0.25808582774225375
159.480285644531,0.2583608176632964
159.816741943359,0.258627689427145
160.153198242188,0.25887895711775194
160.489654541016,0.2591095579326111
160.826110839844,0.2593191151569542
161.162567138672,0.2595084551553919
161.4990234375,0.2596826554277571
161.835479736328,0.2598463791559921
162.171936035156,0.26000436944978494
162.508392333984,0.2601660024205434
162.844848632812,0.26033440204064684
163.181304931641,0.26051402007413643
163.517761230469,0.26070403778513096
163.854217529297,0.26091086221770543
164.190673828125,0.2611295237527885
164.527130126953,0.2613596601219254
164.863586425781,0.26159643276429106
165.200042724609,0.26183774457527415
165.536499023438,0.26207659502570235
165.872955322266,0.2623126827794325
166.209411621094,0.2625380546662737
166.545867919922,0.26275347607365335
166.88232421875,0.2629557282076616
167.218780517578,0.2631450779497428
167.555236816406,0.26332651761485915
167.891693115234,0.26350337453959033
168.228149414062,0.2636802055701095
168.564605712891,0.2638614979885925
168.901062011719,0.2640526806673136
169.237518310547,0.26425549456903896
169.573974609375,0.26447243963025513
169.910430908203,0.26469978023905266
170.246887207031,0.2649348226253992
170.583343505859,0.2651744128449837
170.919799804688,0.26540920839011056
171.256256103516,0.2656329226692947
171.592712402344,0.2658426559382435
171.929168701172,0.26603211963856377
172.265625,0.26619904783029213
172.602081298828,0.26634852981174684
172.938537597656,0.26648027842098526
173.274993896484,0.266601786500683
173.611450195312,0.2667194049727309
173.947906494141,0.26684007812027266
174.284362792969,0.26696951467806945
174.620819091797,0.2671153824768527
174.957275390625,0.2672808734974129
175.293731689453,0.26746586464661143
175.630187988281,0.2676730149669291
175.966644287109,0.2678980939654108
176.303100585938,0.2681371896235794
176.639556884766,0.26838565992815927
176.976013183594,0.26863814594488994
177.312469482422,0.26888593280107154
177.64892578125,0.26912686491062215
177.985382080078,0.26935239379801756
178.321838378906,0.26956208845173246
178.658294677734,0.26975342598654134
178.994750976562,0.2699269154497293
179.331207275391,0.27008604515067824
179.667663574219,0.27023551723271766
180.004119873047,0.27037944061853264
180.340576171875,0.2705264755452443
180.677032470703,0.2706806633783391
181.013488769531,0.27084631346762267
181.349945068359,0.2710294344142976
181.686401367188,0.27122705156536175
182.022857666016,0.27143766261500446
182.359313964844,0.27165756490539733
182.695770263672,0.2718803934404631
183.0322265625,0.272099819367109
183.368682861328,0.27231129920754743
183.705139160156,0.27250848821797513
184.041595458984,0.2726917915093031
184.378051757812,0.27286224221604266
184.714508056641,0.27302111470797114
185.050964355469,0.27317675834648864
185.387420654297,0.2733334593183253
185.723876953125,0.2734990428791948
186.060333251953,0.2736737725954977
186.396789550781,0.2738605760265947
186.733245849609,0.274058263900337
187.069702148438,0.27426091187714247
187.406158447266,0.2744641940111967
187.742614746094,0.2746593598406279
188.079071044922,0.27484341449290156
188.41552734375,0.27501104914491287
188.751983642578,0.27516098389052895
189.088439941406,0.27529844927085306
189.424896240234,0.27542800913525756
189.761352539062,0.2755582284328293
190.097808837891,0.2756995967887619
190.434265136719,0.27585993941036074
190.770721435547,0.27604558528975126
191.107177734375,0.27625762958329886
191.443634033203,0.27649719179586757
191.780090332031,0.2767570856147283
192.116546630859,0.27702967382506455
192.453002929688,0.27730422499246016
192.789459228516,0.27757035275264347
193.125915527344,0.27781933987797286
193.462371826172,0.27804373672907773
193.798828125,0.2782404166962021
194.135284423828,0.2784117473020173
194.471740722656,0.2785618520408961
194.808197021484,0.2786960400715672
195.144653320312,0.2788238614146627
195.481109619141,0.2789508955863343
195.817565917969,0.2790841676440532
196.154022216797,0.27922665542832054
196.490478515625,0.27937980764122017
196.826934814453,0.27954195993846315
197.163391113281,0.2797091903634108
197.499847412109,0.2798780114672878
197.836303710938,0.2800465470807521
198.172760009766,0.2802095257116983
198.509216308594,0.28036646911389435
198.845672607422,0.28051624201545083
199.18212890625,0.28066182081817087
199.518585205078,0.28080410922092575
199.855041503906,0.28094751025633796
200.191497802734,0.28109308649565706
200.527954101562,0.2812432739014989
200.864410400391,0.2813997369251551
201.200866699219,0.281561962489727
201.537322998047,0.28172870045226955
201.873779296875,0.28190027844748505
202.210235595703,0.2820738061448283
202.546691894531,0.2822506331121629
202.883148193359,0.2824272073662602
203.219604492188,0.2826044382461665
203.556060791016,0.28278151480738667
203.892517089844,0.2829570332149107
204.228973388672,0.2831306477676357
204.5654296875,0.28329998748798874
204.901885986328,0.2834623141633085
205.238342285156,0.28361795886898683
205.574798583984,0.28376195789121317
205.911254882812,0.2838957876265421
206.247711181641,0.28401771915881896
206.584167480469,0.28413058839749245
206.920623779297,0.2842390904827332
207.257080078125,0.2843460471086346
207.593536376953,0.2844576130900301
207.929992675781,0.2845792607030499
208.266448974609,0.28471453059119795
208.602905273438,0.28486778037568466
208.939361572266,0.2850384766955929
209.275817871094,0.2852241885306263
209.612274169922,0.2854211713249966
209.94873046875,0.28562437958126
210.285186767578,0.28582332558756474
210.621643066406,0.2860152313042179
210.958099365234,0.28619257351564187
211.294555664062,0.28635367804705036
211.631011962891,0.28649526851290497
211.967468261719,0.28662106342677623
212.303924560547,0.2867338321485471
212.640380859375,0.28683848771252335
212.976837158203,0.2869421689115373
213.313293457031,0.2870487239555329
213.649749755859,0.28716264713003786
213.986206054688,0.2872865390743952
214.322662353516,0.28742040594010126
214.659118652344,0.28756488758827364
214.995574951172,0.28771510526981214
215.33203125,0.2878680505947545
215.668487548828,0.28802176069653845
216.004943847656,0.2881723907997205
216.341400146484,0.28831969976771715
216.677856445312,0.2884639346219327
217.014312744141,0.2886051208973665
217.350769042969,0.28874485918527687
217.687225341797,0.288886274774253
218.023681640625,0.2890290247637304
218.360137939453,0.28917521368973537
218.696594238281,0.28932350769206433
219.033050537109,0.2894717846890951
219.369506835938,0.28961802253817037
219.705963134766,0.2897607872706372
220.042419433594,0.2898972393822476
220.378875732422,0.29002579112262933
220.71533203125,0.2901477782257846
221.051788330078,0.29026238087608736
221.388244628906,0.29037436518790455
221.724700927734,0.2904836999889479
222.061157226562,0.29059485478561675
222.397613525391,0.2907115140683361
222.734069824219,0.29083367830670315
223.070526123047,0.29096316518871285
223.406982421875,0.2910991052498403
223.743438720703,0.2912383628874501
224.079895019531,0.2913795667986449
224.416351318359,0.29152105159597297
224.752807617188,0.2916592487919584
225.089263916016,0.2917936948899456
225.425720214844,0.29192453635261834
225.762176513672,0.2920521575553735
226.0986328125,0.29217992748623306
226.435089111328,0.29230922930282754
226.771545410156,0.29244252334712467
227.108001708984,0.2925815672084538
227.444458007812,0.29272764809647805
227.780914306641,0.29287943029254704
228.117370605469,0.2930357542255482
228.453826904297,0.2931937198859972
228.790283203125,0.29335057340080267
229.126739501953,0.2935029704387854
229.463195800781,0.2936485922171516
229.799652099609,0.2937865624047949
230.136108398438,0.2939173522771141
230.472564697266,0.29404211011357706
230.809020996094,0.29416157745998245
231.145477294922,0.2942816306407708
231.48193359375,0.2944025128940721
231.818389892578,0.29452983835864194
232.154846191406,0.29466309481673736
232.491302490234,0.2948027916978045
232.827758789062,0.2949484311392387
233.164215087891,0.29509778742857606
233.500671386719,0.29524759254307414
233.837127685547,0.2953953484977692
234.173583984375,0.29553585700014934
234.510040283203,0.2956671197885513
234.846496582031,0.29578786158404985
235.182952880859,0.2958979151865056
235.519409179688,0.2959958396268061
235.855865478516,0.2960868486292218
236.192321777344,0.2961719931542301
236.528778076172,0.2962555217553839
236.865234375,0.29634174377975947
237.201690673828,0.296433863354391
237.538146972656,0.29653370548618513
237.874603271484,0.2966426313881296
238.211059570312,0.2967619931825584
238.547515869141,0.2968882288609335
238.883972167969,0.29701963930121944
239.220428466797,0.2971541749059801
239.556884765625,0.2972868927437542
239.893341064453,0.2974151096331851
240.229797363281,0.29753529277050506
240.566253662109,0.2976467312485619
240.902709960938,0.29774966657651475
241.239166259766,0.29784608213757396
241.575622558594,0.29793891146842005
241.912078857422,0.2980311187918406
242.24853515625,0.2981269559438002
242.584991455078,0.2982306105557253
242.921447753906,0.2983434735360757
243.257904052734,0.29846525778290783
243.594360351562,0.2985939317330001
243.930816650391,0.2987265567349964
244.267272949219,0.2988579939111545
244.603729248047,0.2989859417859559
244.940185546875,0.2991035772096149
245.276641845703,0.2992099757541304
245.613098144531,0.2993040199489129
245.949554443359,0.29939062950015477
246.286010742188,0.2994729844545219
246.622467041016,0.2995610043917381
246.958923339844,0.2996615904848105
247.295379638672,0.2997830434305024
247.6318359375,0.2999285418313267
247.968292236328,0.3000989005710033
248.304748535156,0.30028997700243315
248.641204833984,0.3004929691476463
248.977661132812,0.30069882397160214
249.314117431641,0.30089678878041565
249.650573730469,0.3010753031052484
249.987030029297,0.30122738465644705
250.323486328125,0.3013454919346132
250.659942626953,0.3014262639228022
250.996398925781,0.3014703115390894
251.332855224609,0.3014841193560888
251.669311523438,0.3014755749713306
252.005767822266,0.30146010459327227
252.342224121094,0.30145011244257797
252.678680419922,0.3014607623458925
253.01513671875,0.3015017926337833
253.351593017578,0.3015780373373406
253.688049316406,0.30168836783796027
254.024505615234,0.3018261886633244
254.360961914062,0.30198187985466096
254.697418212891,0.3021439545279376
255.033874511719,0.30230212544870333
255.370330810547,0.3024462271275495
255.706787109375,0.3025710952268725
256.043243408203,0.30267469932523383
256.379699707031,0.3027588743875614
256.716156005859,0.30282746146761036
257.052612304688,0.30288797013193086
257.389068603516,0.30294817264322266
257.725524902344,0.3030135089580412
258.061981201172,0.3030888525127229
258.3984375,0.3031764707023232
258.734893798828,0.30327533901509396
259.071350097656,0.3033831036152874
259.407806396484,0.30349534556061447
259.744262695312,0.30360735279545487
260.080718994141,0.30371470429432096
260.417175292969,0.30381653471123277
260.753631591797,0.30390904259101786
261.090087890625,0.30399475433404866
261.426544189453,0.30407409236572563
261.763000488281,0.3041497523693603
262.099456787109,0.3042255859978667
262.435913085938,0.3043041619220117
262.772369384766,0.30438546439707914
263.108825683594,0.30447151160943947
263.445281982422,0.3045604521449197
263.78173828125,0.304651205105915
264.118194580078,0.3047421558711812
264.454650878906,0.3048310162541047
264.791107177734,0.30491670550640254
265.127563476562,0.3049986546986201
265.464019775391,0.3050769309312658
265.800476074219,0.3051530030976191
266.136932373047,0.30522800423272617
266.473388671875,0.3053040053982241
266.809844970703,0.30538160559131594
267.146301269531,0.30546206078578186
267.482757568359,0.30554554579606014
267.819213867188,0.30563181372129766
268.155670166016,0.30571938553002137
268.492126464844,0.305807242743438
268.828582763672,0.3058939687820075
269.1650390625,0.3059773523987525
269.501495361328,0.30605767318487026
269.837951660156,0.30613337321188494
270.174407958984,0.3062047702114634
270.510864257812,0.3062728106094921
270.847320556641,0.3063365449558775
271.183776855469,0.30639867827754613
271.520233154297,0.3064602191822791
271.856689453125,0.3065212113929344
272.193145751953,0.3065824647910444
272.529602050781,0.3066457207376741
272.866058349609,0.3067104196863573
273.202514648438,0.30677694786419035
273.538970947266,0.3068455914092276
273.875427246094,0.30691558861831186
274.211883544922,0.306986236569693
274.54833984375,0.30705645573707263
274.884796142578,0.30712638375739637
275.221252441406,0.307193345069023
275.557708740234,0.3072578411155356
275.894165039062,0.307318592592198
276.230621337891,0.3073750681575799
276.567077636719,0.3074276306017128
276.903533935547,0.3074762086038914
277.239990234375,0.3075207457711475
277.576446533203,0.3075631463785202
277.912902832031,0.30760408422190344
278.249359130859,0.3076446539710906
278.585815429688,0.30768627064216797
278.922271728516,0.30772891770018024
279.258728027344,0.3077748541105298
279.595184326172,0.3078230042955646
279.931640625,0.3078741221374191
280.268096923828,0.3079271822474336
280.604553222656,0.3079818431545705
280.941009521484,0.30803706495315036
281.277465820312,0.3080920051278178
281.613922119141,0.30814603902918414
281.950378417969,0.308198466586346
282.286834716797,0.30824838086157097
282.623291015625,0.3082961517588269
282.959747314453,0.3083416364025173
283.296203613281,0.30838622283317124
283.632659912109,0.3084290348418328
283.969116210938,0.30847194211049284
284.305572509766,0.3085153832736128
284.642028808594,0.3085598550392386
